%time,field.data
1678310096623870159,0.525549650192
1678310096647474856,0.52381259203
1678310096662749047,0.518940806389
1678310096671289454,0.51263064146
1678310096712627965,0.503069996834
1678310096722136808,0.493077516556
1678310096747121169,0.483789741993
1678310096757760630,0.466993093491
1678310096798173304,0.445891201496
1678310096836666488,0.420364975929
1678310096847259678,0.396043688059
1678310096884712520,0.369924664497
1678310096898617495,0.352263242006
1678310096936587958,0.32189193368
1678310096947931787,0.298725098372
1678310096971345847,0.262829393148
1678310097012832251,0.233052015305
1678310097023332804,0.217504411936
1678310097060661853,0.196483880281
1678310097073391297,0.172202274203
1678310097112948016,0.159602090716
1678310097122297878,0.132173493505
1678310097147282429,0.122897021472
1678310097188757894,0.105464138091
1678310097198194643,0.078682474792
1678310097236824077,0.0642021223903
1678310097247084101,0.047061752528
1678310097288839762,0.0419711656868
1678310097297445871,0.0248032920063
1678310097322485157,0.0322995334864
1678310097332784684,0.0217501111329
1678310097374220761,0.0245008803904
1678310097413892710,0.0207108538598
1678310097424631511,0.0116593036801
1678310097469781657,0.010644200258
1678310097490513880,0.0173366479576
1678310097512882476,0.0159174595028
1678310097523458266,0.0225892402232
1678310097549822440,0.0209927149117
1678310097588701026,0.0172845162451
1678310097600228586,0.0234753452241
1678310097636913224,0.0213326886296
1678310097648598087,0.0169614925981
1678310097688656044,0.015243398957
1678310097698587777,0.00511360540986
1678310097723348144,0.00243604765274
1678310097775295780,0.000596447556745
1678310097796958152,0.00364790926687
1678310097812671419,0.00526406150311
1678310097824323484,0.010663498193
1678310097865036797,0.00385731784627
1678310097874732509,0.00614653620869
1678310097898749646,0.00464513804764
1678310097908841642,0.00792875420302
1678310097948048068,0.00683492748067
1678310097989061031,0.00594305340201
1678310097998100589,0.00911711715162
1678310098037226971,0.00677214656025
1678310098049321444,0.00599085725844
1678310098088937281,0.00598638039082
1678310098099934655,0.00500092329457
1678310098124485141,0.00505255721509
1678310098175072093,0.00681081693619
1678310098199378006,0.00744007714093
1678310098212777526,0.00589674478397
1678310098223262691,0.00577423721552
1678310098264854288,0.00527335191146
1678310098275379702,0.00620732596144
1678310098312858648,0.00614208355546
1678310098324334219,0.00549805723131
1678310098349341042,0.00447184406221
1678310098389934683,0.0035513152834
1678310098398057524,0.00803464557976
1678310098439062904,0.00618075300008
1678310098449550137,0.00536683993414
1678310098489853072,0.00492466660216
1678310098497731506,0.00701732980087
1678310098524759027,0.00520491134375
1678310098566039327,0.00562248332426
1678310098573759014,0.00699363602325
1678310098629901583,0.00447666272521
1678310098649409353,0.00253705773503
1678310098668746596,0.00563813047484
1678310098668834969,0.00441022682935
1678310098702273315,0.00143979303539
1678310098723951218,0.00432764692232
1678310098750326239,-0.00928794685751
1678310098793369982,-0.011469299905
1678310098817006417,-0.0190730784088
1678310098842368341,-0.0190386362374
1678310098848778359,-0.0303036309779
1678310098889067297,-0.0453373976052
1678310098900486542,-0.0549937151372
1678310098925679437,-0.0551706030965
1678310098964665673,-0.0698087587953
1678310098975279265,-0.0783069878817
1678310099012974856,-0.0841650590301
1678310099026222546,-0.0925454720855
1678310099064946398,-0.0971931517124
1678310099074454960,-0.106793381274
1678310099101671310,-0.115206465125
1678310099141190037,-0.118485555053
1678310099150016832,-0.122381649911
1678310099188625100,-0.134567856789
1678310099200789428,-0.129277840257
1678310099242604569,-0.146646082401
1678310099249772865,-0.14479008317
1678310099277150632,-0.135999426246
1678310099317741617,-0.122814051807
1678310099326924062,-0.110441453755
1678310099367116734,-0.0791931152344
1678310099376671116,-0.0844210907817
1678310099416745687,-0.0546102970839
1678310099430356003,-0.0159979183227
1678310099451020589,0.0159254763275
1678310099461326687,0.0549309775233
1678310099499933618,0.091477163136
1678310099540930243,0.107542835176
1678310099551198416,0.138476073742
1678310099594210447,0.0980216488242
1678310099600865692,0.100443422794
1678310099640994351,0.104164026678
1678310099651347888,0.107764430344
1678310099675008921,0.155703991652
1678310099716844751,0.149609267712
1678310099744988906,0.128041177988
1678310099766354737,0.0982176437974
1678310099775806846,0.0692551657557
1678310099818610500,0.0387409441173
1678310099841105183,0.00834410823882
1678310099851790413,-0.0274773929268
1678310099860798024,-0.0577734075487
1678310099901639507,-0.0779147073627
1678310099954058431,-0.0888238847256
1678310099963141878,-0.0873380824924
1678310099988796337,-0.0986360907555
1678310100000945662,-0.10905623436
1678310100041982303,-0.104303263128
1678310100054711909,-0.100267469883
1678310100076531355,-0.108454152942
1678310100116734611,-0.106402136385
1678310100132008531,-0.08401363343
1678310100172979667,-0.0519811324775
1678310100193044899,-0.0150303253904
1678310100218444381,0.0164509210736
1678310100254060680,0.0549514107406
1678310100272737819,0.0834392085671
1678310100293081165,0.0601027235389
1678310100302568761,0.0709817707539
1678310100340833698,0.0766822844744
1678310100351587620,0.0864981710911
1678310100393796798,0.0916424244642
1678310100401794832,0.0906909033656
1678310100427682986,0.0954983606935
1678310100437665114,0.0905531421304
1678310100477531244,0.132908776402
1678310100516894824,0.10940592736
1678310100526614437,0.0796901732683
1678310100569133620,0.0488023459911
1678310100577724087,0.020367089659
1678310100604997414,-0.0121530815959
1678310100616608111,-0.0410790890455
1678310100649379895,-0.0773949548602
1678310100692866603,-0.0968815907836
1678310100702716959,-0.117023132741
1678310100761296164,-0.11932374537
1678310100778384907,-0.113514982164
1678310100796897291,-0.124879390001
1678310100796946241,-0.129887729883
1678310100828981253,-0.139120608568
1678310100869204713,-0.134865477681
1678310100878246906,-0.121305271983
1678310100916781235,-0.0952337682247
1678310100928345279,-0.0581748597324
1678310100969029867,-0.0164685621858
1678310100980777866,0.0246652960777
1678310101003909860,0.0579760968685
1678310101052711367,0.0966988429427
1678310101072888091,0.10820094496
1678310101093410457,0.058998465538
1678310101102758083,0.0670542567968
1678310101140742162,0.0756152644753
1678310101157026484,0.0827801153064
1678310101178598762,0.0913714691997
1678310101188833605,0.0894669517875
1678310101227703701,0.0932503119111
1678310101283031598,0.0905289500952
1678310101305203350,0.146303832531
1678310101331405480,0.140579491854
1678310101331434907,0.109966762364
1678310101366014122,0.0823576822877
1678310101388351497,0.0513959489763
1678310101403882122,0.021622788161
1678310101445160203,-0.0101198051125
1678310101454014995,-0.0436473824084
1678310101492838167,-0.0732239037752
1678310101503697862,-0.105569623411
1678310101545150528,-0.117858223617
1678310101553862171,-0.126013308764
1678310101578946743,-0.1320977211
1678310101588773675,-0.134410500526
1678310101630210465,-0.133128330112
1678310101668878858,-0.128181263804
1678310101686724911,-0.109050966799
1678310101715698934,-0.0783393159509
1678310101730247851,-0.0445203967392
1678310101769115892,-0.00916374940425
1678310101779043819,0.0307096075267
1678310101804150101,0.0664676427841
1678310101845760453,0.108674131334
1678310101861853376,0.124047979712
1678310101893148447,0.0705583617091
1678310101909156424,0.0757860839367
1678310101944795988,0.0862938165665
1678310101954205385,0.087354965508
1678310101979055166,0.0983046740294
1678310102021012628,0.103377394378
1678310102030007171,0.0995473191142
1678310102068844806,0.100872024894
1678310102079970146,0.159819930792
1678310102121103330,0.139542534947
1678310102130042880,0.11371537298
1678310102155361380,0.0859044566751
1678310102164841009,0.0564059987664
1678310102204219769,0.0263500120491
1678310102245123381,-0.000766152283177
1678310102255067671,-0.0334489010274
1678310102294613981,-0.0669858232141
1678310102305858382,-0.0942588895559
1678310102347017580,-0.11284879595
1678310102356567253,-0.120647124946
1678310102385422091,-0.129155471921
1678310102430529722,-0.131816551089
1678310102456471520,-0.128491401672
1678310102479299570,-0.122005365789
1678310102499500413,-0.100685730577
1678310102520782825,-0.0768582597375
1678310102531140752,-0.0418530516326
1678310102555791974,-0.00692818546668
1678310102596973151,0.0247070733458
1678310102606900404,0.0569677613676
1678310102644792581,0.091943860054
1678310102665411807,0.125545457006
1678310102697143914,0.139921680093
1678310102706217833,0.148957684636
1678310102731414272,0.152443304658
1678310102754634997,0.160681337118
1678310102780235135,0.157019153237
1678310102821195971,0.155122801661
1678310102831092076,0.137496769428
1678310102868896688,0.114878490567
1678310102880154602,0.0884021818638
1678310102921022178,0.063549362123
1678310102930957930,0.0313821621239
1678310102956531952,0.00345319928601
1678310102997378421,-0.0259383991361
1678310103009553141,-0.0611323565245
1678310103045040384,-0.0916399434209
1678310103056318210,-0.11890886724
1678310103101064650,-0.131250157952
1678310103107480260,-0.138792335987
1678310103131805093,-0.142850503325
1678310103143788105,-0.14622618258
1678310103182675696,-0.142551258206
1678310103222759816,-0.126328900456
1678310103232234299,-0.102459780872
1678310103274260457,-0.0759048387408
1678310103292858005,-0.0478106215596
1678310103321915665,-0.0122744655237
1678310103334222082,0.0194500386715
1678310103356543530,0.0588125176728
1678310103410521561,0.0908920988441
1678310103436512924,0.117013625801
1678310103451280217,0.14324824512
1678310103451304356,0.145329982042
1678310103512491256,0.149825453758
1678310103531614453,0.154024600983
1678310103552957732,0.165219545364
1678310103572890158,0.163719385862
1678310103582453169,0.154459431767
1678310103621021245,0.138372942805
1678310103631938980,0.115101121366
1678310103673315605,0.0886216536164
1678310103682594411,0.0641260296106
1678310103713768449,0.0350434035063
1678310103732692623,0.0071384338662
1678310103761643720,-0.0219461675733
1678310103804699122,-0.0557692907751
1678310103820989705,-0.0767841339111
1678310103840842895,-0.102611094713
1678310103857728948,-0.121543243527
1678310103901000860,-0.132303118706
1678310103907021389,-0.135813504457
1678310103937744842,-0.129848971963
1678310103973028670,-0.120181314647
1678310103984008891,-0.101706564426
1678310104021230069,-0.0810192897916
1678310104036461635,-0.049810949713
1678310104072891626,-0.0167047567666
1678310104084531396,0.0161848664284
1678310104107934156,0.0492880903184
1678310104158611973,0.0814221575856
1678310104165503243,0.104553468525
1678310104197407667,0.125674158335
1678310104210093993,0.140748277307
1678310104249201771,0.14479932189
1678310104258627241,0.147406965494
1678310104296926148,0.147011756897
1678310104317037772,0.139801010489
1678310104333240329,0.0603534057736
1678310104373287182,0.104664646089
1678310104383692876,0.0845651477575
1678310104420893522,0.0565583370626
1678310104433669745,0.0276640560478
1678310104473677580,0.000612522300798
1678310104483647312,-0.023922290653
1678310104508828956,-0.0509925037622
1678310104548986368,-0.0734953358769
1678310104559021377,-0.0943253710866
1678310104597046967,-0.113690324128
1678310104609237265,-0.12334394455
1678310104649934201,-0.126796618104
1678310104658653577,-0.124370619655
1678310104685296686,-0.117902047932
1678310104725187604,-0.102577902377
1678310104735676770,-0.0798501595855
1678310104772743422,-0.0460787303746
1678310104784887140,-0.0103159574792
1678310104811547906,0.0251204315573
1678310104825057932,0.0596956126392
1678310104859832323,0.0697098523378
1678310104910528661,0.0939161032438
1678310104934666014,0.127897828817
1678310104948940614,0.143186271191
1678310104960828380,0.149084627628
1678310104996856952,0.155304998159
1678310105010347031,0.156784385443
1678310105036241701,0.151668250561
1678310105060106643,0.147835165262
1678310105085222095,0.1222191751
1678310105124941074,0.122332908213
1678310105135223638,0.0972234904766
1678310105181003327,0.0752128064632
1678310105200851204,0.0457613691688
1678310105225065215,0.0226330682635
1678310105235224325,0.00281417323276
1678310105259885209,-0.0166963543743
1678310105300949303,-0.0468459539115
1678310105310448504,-0.0700406432152
1678310105348849208,-0.0795548334718
1678310105360264439,-0.0866156667471
1678310105401113791,-0.0962967276573
1678310105410379709,-0.0974524766207
1678310105435471238,-0.0930877774954
1678310105455286754,-0.0865919217467
1678310105485873701,-0.0818391516805
1678310105525269769,-0.0618573985994
1678310105538443593,-0.0356440916657
1678310105576887802,-0.011803845875
1678310105586216507,0.0187181085348
1678310105629105252,0.0392219014466
1678310105636169847,0.074628405273
1678310105660555381,0.0931903943419
1678310105701160233,0.111688069999
1678310105711281205,0.104523248971
1678310105749166136,0.13238427043
1678310105761691989,0.123822376132
1678310105800910142,0.14031457901
1678310105811812539,0.115925841033
1678310105837877416,0.120624125004
1678310105902015770,0.0956850200891
1678310105913801746,0.0709382593632
1678310105922334569,0.0425170622766
1678310105937909381,0.00757698575035
1678310105976875340,-0.0210373736918
1678310105987367528,-0.0416448786855
1678310106011781824,-0.072054348886
1678310106020876740,-0.0887277275324
1678310106062527172,-0.106174476445
1678310106101101264,-0.110214650631
1678310106113043604,-0.118527330458
1678310106149054761,-0.1215666309
1678310106161880388,-0.12500679493
1678310106200989931,-0.119917079806
1678310106212287880,-0.11287740618
1678310106236660218,-0.0938946381211
1678310106277285016,-0.0654369369149
1678310106289743883,-0.0341864898801
1678310106325040341,-0.00145858328324
1678310106337103010,0.0323496460915
1678310106377169905,0.0724307522178
1678310106387350481,0.103686340153
1678310106412514767,0.121143102646
1678310106454766338,0.0637655630708
1678310106481883435,0.0675933435559
1678310106505046192,0.0778946056962
1678310106513342735,0.0799746066332
1678310106550972150,0.094171255827
1678310106561203712,0.0959339588881
1678310106585989700,0.0928495675325
1678310106597035658,0.160406753421
1678310106638131873,0.133796066046
1678310106678302020,0.123037345707
1678310106687067237,0.093681961298
1678310106729103788,0.0653589144349
1678310106752956759,0.0342365093529
1678310106777223901,0.00579861924052
1678310106787147084,-0.0205548349768
1678310106811772879,-0.0497957877815
1678310106853050576,-0.0707719475031
1678310106861544790,-0.0826553329825
1678310106902818359,-0.105194747448
1678310106911473321,-0.103074707091
1678310106953135251,-0.114737965167
1678310106961757774,-0.109463214874
1678310106989317494,-0.108131788671
1678310106997867984,-0.107563063502
1678310107032592179,-0.106472909451
1678310107076963478,-0.110579535365
1678310107087776816,-0.114248923957
1678310107131997126,-0.109196595848
1678310107137318795,-0.110659100115
1678310107177008448,-0.110178790987
1678310107187304417,-0.115450516343
1678310107212887473,-0.10836238414
1678310107253153955,-0.116844579577
1678310107262923727,-0.116971902549
1678310107300996722,-0.123964704573
1678310107312884810,-0.126051738858
1678310107353222964,-0.123276039958
1678310107364152086,-0.12892600894
1678310107387344528,-0.128072932363
1678310107429081576,-0.131084397435
1678310107438561137,-0.123979762197
1678310107478637379,-0.126644089818
1678310107490068713,-0.126503556967
1678310107528879388,-0.132742255926
1678310107537614463,-0.124973632395
1678310107563361225,-0.128570705652
1678310107572974053,-0.127828225493
1678310107613705228,-0.124938353896
1678310107652958640,-0.130898073316
1678310107663769295,-0.128670334816
1678310107709836534,-0.128233373165
1678310107729034370,-0.131256476045
1678310107752856953,-0.127375170588
1678310107763916482,-0.128570720553
1678310107787579050,-0.135391995311
1678310107829098996,-0.123779140413
1678310107838759759,-0.126758605242
1678310107876962288,-0.126582846045
1678310107888730933,-0.129759371281
1678310107929129691,-0.129136055708
1678310107938866452,-0.126153960824
1678310107965069329,-0.127534627914
1678310107987939769,-0.129694715142
1678310108024063400,-0.128152728081
1678310108053272224,-0.128169193864
1678310108060416691,-0.125661000609
1678310108111286279,-0.125298425555
1678310108131380249,-0.127965882421
1678310108154155212,-0.126280084252
1678310108163481619,-0.130943149328
1678310108188174649,-0.12580986321
1678310108229025131,-0.128609061241
1678310108238706861,-0.130224138498
1678310108277340088,-0.124819085002
1678310108288748622,-0.128743857145
1678310108328929465,-0.127341657877
1678310108338095101,-0.126343712211
1678310108364909033,-0.129954740405
1678310108405463312,-0.130226135254
1678310108414186916,-0.129447117448
1678310108461027858,-0.124383874238
1678310108477215413,-0.126396492124
1678310108505187253,-0.125080436468
1678310108513965855,-0.127076804638
1678310108541840868,-0.13095587492
1678310108550623303,-0.128647595644
1678310108588674611,-0.127937823534
1678310108630815790,-0.132638990879
1678310108638390541,-0.12711122632
1678310108678649390,-0.127819895744
1678310108690032313,-0.126611426473
1678310108730420293,-0.130183622241
1678310108739143881,-0.126334741712
1678310108763468887,-0.130567789078
1678310108805633223,-0.119434446096
1678310108814302624,-0.0242327544838
1678310108853163621,-0.0183931645006
1678310108864479847,-0.0160862877965
1678310108904981790,-0.00708102341741
1678310108913737769,-0.00417617103085
1678310108939474944,0.00381142809056
1678310108951049747,0.00549284275621
1678310108989881589,-0.0505809485912
1678310109029094529,-0.0836099311709
1678310109040346517,-0.0843435376883
1678310109077646934,-0.0827745497227
1678310109089876619,-0.0768010318279
1678310109117795628,-0.0735273733735
1678310109123183761,-0.0722375512123
1678310109164724505,-0.0706217214465
1678310109206635387,-0.0648688748479
1678310109214651024,-0.0638853833079
1678310109253243516,-0.0587088130414
1678310109265430362,-0.0560664013028
1678310109305215437,-0.0526371784508
1678310109315101883,-0.0542518943548
1678310109340376285,-0.0501242205501
1678310109349112699,-0.0472450256348
1678310109390302202,-0.044681802392
1678310109428962010,-0.0415014922619
1678310109442401780,-0.038547616452
1678310109477361906,-0.0358217693865
1678310109488934477,-0.034536305815
1678310109529102910,-0.0305706840008
1678310109540072900,-0.0265289563686
1678310109565380447,-0.0220614355057
1678310109605224255,-0.0182436909527
1678310109614944478,-0.0134706199169
1678310109655534710,-0.00997898634523
1678310109664454851,-0.00911728944629
1678310109706068212,-0.00240191374905
1678310109714846325,0.000560506945476
1678310109740127683,0.00513233384117
1678310109780987864,0.0085429623723
